<?xml version="1.0" encoding="UTF-8"?>
<xrdMeasurements xmlns="http://www.xrdml.com/XRDMeasurement/1.5" xmlns:xsi="http://www.w3.org/2001/XMLSchema-instance" xsi:schemaLocation="http://www.xrdml.com/XRDMeasurement/1.5 http://www.xrdml.com/XRDMeasurement/1.5/XRDMeasurement.xsd" status="Completed">
	<comment>
		<entry>France</entry>
	</comment>
	<sample type="To be analyzed">
		<id>NB LM01MO</id>
	</sample>
	<xrdMeasurement measurementType="Scan" status="Completed" sampleMode="Reflection">
		<usedWavelength intended="K-Alpha 1">
			<kAlpha1 unit="Angstrom">1.540598</kAlpha1>
			<kAlpha2 unit="Angstrom">1.544426</kAlpha2>
			<kBeta unit="Angstrom">1.392250</kBeta>
			<ratioKAlpha2KAlpha1>0.500000</ratioKAlpha2KAlpha1>
		</usedWavelength>
		<incidentBeamPath>
			<radius unit="mm">217.500</radius>
			<xRayTube>
				<tension unit="kV">40</tension>
				<current unit="mA">40</current>
				<anodeMaterial>Cu</anodeMaterial>
			</xRayTube>
			<divergenceSlit xsi:type="fixedDivergenceSlitType">
				<angle unit="deg">0.600</angle>
			</divergenceSlit>
		</incidentBeamPath>
		<diffractedBeamPath>
			<radius unit="mm">217.500</radius>
			<receivingSlit>
				<height unit="mm">0.100</height>
			</receivingSlit>
		</diffractedBeamPath>
		<scan appendNumber="0" mode="Pre-set time" scanAxis="Gonio" status="Completed">
			<header>
				<startTimeStamp>2018-09-24T11:45:51</startTimeStamp>
				<author>
					<name>nashost</name>
				</author>
				<source>
					<applicationSoftware version="3.0.2">HighScore Plus</applicationSoftware>
				</source>
			</header>
			<dataPoints>
				<positions axis="2Theta" unit="deg">
					<startPosition>10.000</startPosition>
					<endPosition>79.986</endPosition>
				</positions>
				<commonCountingTime unit="seconds">197.998</commonCountingTime>
				<intensities unit="counts">254 218 241 258 238 255 244 264 246 260 237 229 245 266 258 233 228 235 240 240 233 237 223 212 219 247 246 250 237 252 234 241 218 220 223 226 235 227 219 180 202 232 246 250 234 225 221 209 219 225 223 230 224 240 236 210 222 222 213 195 189 213 217 203 211 214 220 225 223 209 225 214 226 224 211 211 214 208 206 199 199 202 202 210 218 225 203 212 215 220 208 189 164 196 193 200 206 193 196 207 197 192 194 207 204 190 180 196 187 198 201 193 193 187 191 202 197 181 191 181 177 196 198 172 227 202 197 210 220 212 205 200 222 240 257 246 266 264 262 251 235 223 213 203 208 214 208 201 193 197 188 191 196 189 173 188 181 180 181 197 165 168 188 170 175 161 167 165 168 177 187 186 186 181 173 165 176 188 178 169 162 156 168 164 161 176 154 171 175 165 164 162 162 171 154 164 186 156 148 140 163 172 163 165 169 158 162 161 157 162 157 155 155 147 152 153 163 146 147 169 165 154 181 149 147 153 177 159 177 171 169 164 156 162 151 161 160 160 161 153 153 168 174 153 140 153 153 162 161 165 160 131 143 146 161 145 151 176 141 157 161 169 157 151 133 152 166 167 160 147 140 144 150 173 169 139 159 160 156 165 150 156 148 152 168 155 147 167 153 170 153 168 169 176 175 206 199 197 198 196 200 226 233 251 287 313 368 426 480 577 652 688 726 750 731 637 597 513 502 359 359 335 278 265 242 240 235 218 191 198 189 189 187 175 166 173 171 162 167 161 156 159 172 170 148 140 146 144 135 147 151 144 160 140 137 157 136 131 134 135 144 138 125 133 130 135 138 124 117 113 113 132 142 133 132 136 138 113 127 128 140 121 138 115 114 126 113 117 121 115 107 130 133 140 137 131 129 125 127 143 131 110 119 119 120 122 123 118 117 106 115 136 97 131 127 122 128 125 114 94 99 124 121 122 116 116 114 103 108 108 104 103 109 118 113 111 121 118 102 100 105 118 121 127 103 106 115 95 113 86 104 109 129 124 142 123 114 109 104 110 108 110 108 113 118 120 125 111 103 104 110 101 109 103 101 95 120 129 102 102 102 82 88 83 100 113 110 108 112 108 120 120 112 105 118 115 115 133 129 136 146 147 160 175 182 194 183 172 174 173 160 142 145 138 129 125 123 134 134 124 151 158 179 192 219 253 271 277 295 325 330 328 344 328 308 283 277 264 244 187 190 167 154 138 142 142 128 127 136 113 123 121 132 116 108 109 106 119 112 99 101 101 115 131 119 103 117 131 122 135 139 151 147 145 160 178 189 189 170 198 161 152 176 150 153 130 128 151 138 121 116 112 109 106 119 125 115 117 120 113 117 121 104 131 118 114 126 141 139 167 160 177 187 187 184 196 194 207 213 216 227 231 216 217 218 219 244 248 258 273 288 266 302 316 363 342 397 447 463 514 555 564 567 633 638 650 695 699 703 674 650 657 613 572 544 524 481 422 404 354 332 311 282 269 232 227 218 226 210 200 192 143 156 129 158 125 118 131 130 109 117 112 101 100 99 98 104 102 100 93 84 98 91 87 88 96 89 89 85 86 92 76 70 74 70 92 88 77 79 85 92 77 64 66 66 80 79 74 73 74 78 79 72 56 67 72 67 80 82 85 68 77 66 65 77 78 79 75 60 70 73 53 55 59 63 67 66 64 67 65 64 73 75 64 51 61 78 71 75 80 75 61 75 80 80 63 66 83 68 79 73 86 83 79 84 90 90 96 92 92 89 89 79 71 71 65 70 74 74 75 73 62 77 86 74 68 62 64 62 65 66 51 56 70 68 65 68 71 70 68 62 62 61 60 72 77 67 69 72 60 60 67 65 68 69 86 75 70 69 83 72 70 70 71 81 75 83 71 77 96 92 89 94 103 110 112 109 120 127 123 137 130 125 148 163 155 151 174 165 158 136 168 186 171 168 173 159 151 146 150 149 150 142 146 144 138 126 109 107 114 114 97 82 99 94 79 91 95 79 73 76 75 69 79 72 64 80 69 73 76 64 69 81 88 80 84 85 101 118 113 112 122 129 125 110 112 114 97 79 79 88 83 70 81 72 72 67 78 63 80 69 59 63 67 72 58 68 66 60 56 59 67 76 76 67 64 63 64 67 64 69 76 66 60 67 74 70 69 63 63 78 64 64 73 75 77 74 65 73 76 76 67 66 77 81 86 91 96 104 96 112 122 123 126 137 129 160 169 229 248 288 309 352 355 358 369 351 333 286 267 250 219 190 172 170 147 127 128 119 111 105 110 125 106 91 85 82 76 81 81 87 75 84 76 81 70 76 71 73 69 68 62 63 70 74 80 82 77 84 88 89 106 97 99 104 86 111 109 119 118 142 143 157 191 181 208 218 244 243 241 223 222 238 242 243 247 263 298 315 341 390 436 486 517 505 499 507 450 384 353 281 234 204 217 214 169 147 134 150 131 130 124 128 122 116 131 136 123 122 130 147 156 161 181 202 210 201 217 258 286 299 343 345 345 375 372 395 388 401 386 389 408 398 383 352 364 370 360 346 319 327 320 284 257 246 239 222 198 173 175 171 150 119 114 130 132 147 123 114 111 109 130 126 119 115 137 146 145 155 152 164 192 189 192 204 207 224 241 241 231 227 253 256 241 266 276 292 324 336 342 401 411 438 508 569 599 625 659 720 740 735 767 797 791 737 690 669 654 625 576 527 475 443 436 385 348 334 296 286 270 251 251 224 228 190 188 168 163 149 156 133 137 145 129 143 126 120 112 105 110 122 129 121 120 110 124 144 119 132 130 118 116 119 116 115 114 104 109 113 105 101 98 106 88 75 76 71 76 72 68 75 72 63 58 54 60 60 47 65 65 64 60 69 74 67 83 61 87 79 56 74 72 82 79 76 72 77 72 79 80 87 85 89 106 105 109 125 124 139 159 172 154 200 211 248 262 274 321 339 333 365 374 396 373 364 371 427 419 405 376 357 327 303 290 251 217 202 179 170 166 158 166 131 142 139 126 104 130 126 118 112 90 107 108 102 112 89 131 120 113 127 126 142 130 136 155 159 181 194 193 211 229 259 262 289 336 335 328 357 369 387 355 384 416 374 305 295 298 311 286 283 265 278 279 289 282 273 267 266 285 317 340 335 327 343 318 302 323 312 313 323 330 302 332 315 328 330 320 366 341 365 340 327 319 327 322 331 348 344 335 335 333 317 315 330 316 310 328 340 328 340 341 347 340 398 375 375 414 413 433 453 448 462 519 499 539 490 493 504 469 450 444 437 437 412 389 405 384 336 307 319 294 275 254 255 226 224 186 194 193 168 157 123 158 145 126 125 122 130 135 139 131 138 137 118 113 122 135 158 171 158 179 186 203 201 249 249 267 256 311 312 331 284 279 282 285 267 248 235 231 227 213 190 180 162 158 162 160 166 177 182 169 175 184 187 193 191 206 202 223 241 236 232 226 190 188 147 144 123 123 115 130 123 99 89 100 90 82 80 75 86 92 89 82 71 94 83 81 82 76 67 80 86 76 82 93 86 92 95 96 96 99 101 105 101 94 99 102 107 119 123 123 121 117 132 129 124 150 156 149 136 150 163 146 138 158 160 183 161 166 177 184 195 184 168 190 201 198 202 201 188 186 198 204 207 200 194 195 180 202 203 209 207 197 214 237 258 248 255 255 249 259 262 260 251 259 252 218 210 197 173 169 168 148 132 135 129 114 112 111 103 90 74 64 67 57 67 76 71 73 50 79 59 66 55 55 54 48 52 52 48 51 52 48 49 47 40 41 46 48 47 45 47 41 53 49 49 41 55 43 45 43 47 52 50 63 48 55 51 54 63 60 55 57 46 47 57 49 43 48 50 49 48 52 55 46 47 48 44 41 42 40 36 43 54 50 39 37 37 40 31 32 39 45 36 34 41 38 36 31 32 39 39 46 52 52 45 45 44 45 49 42 51 61 57 62 59 46 62 57 64 77 72 87 87 86 81 79 78 81 76 70 68 66 65 65 66 64 68 72 64 62 75 75 64 61 64 75 68 77 68 64 74 61 50 57 54 54 57 55 55 55 48 50 55 50 47 43 44 49 46 38 41 49 50 31 40 39 37 35 46 33 37 50 52 52 45 46 46 49 44 44 46 48 46 41 40 46 55 59 55 52 61 66 61 60 67 66 78 72 64 82 69 67 76 72 82 79 76 76 77 78 81 76 76 87 90 86 80 85 95 90 94 98 96 96 85 87 94 82 92 104 79 78 86 98 98 101 93 108 91 90 100 103 106 96 104 114 104 95 97 93 83 79 79 86 81 68 66 66 55 46 68 49 52 56 48 46 55 40 38 45 43 46 43 44 43 41 43 40 39 37 30 33 42 46 45 39 38 52 49 37 49 48 46 42 46 47 46 56 50 68 69 65 51 68 77 64 62 75 87 87 80 78 87 94 96 106 115 110 105 117 104 86 97 90 82 104 92 100 103 105 109 106 104 93 103 93 99 111 112 105 97 90 96 102 89 75 77 85 91 87 75 75 66 59 56 58 48 63 59 64 65 55 65 58 57 64 48 48 54 57 55 62 60 53 51 45 41 45 51 50 49 54 47 43 48 56 54 34 38 35 38 26 30 24 40 39 34 47 29 34 31 35 32 29 34 39 37 36 34 29 28 26 31 36 38 38 30 41 34 42 29 30 28 33 36 28 42 35 42 46 39 38 29 34 35 47 42 40 40 34 36 37 35 40 40 37 31 28 38 32 38 32 32 40 33 39 33 27 34 27 30 37 32 24 31 40 45 43 40 39 37 38 44 44 41 50 59 53 47 40 44 37 51 40 53 52 58 60 55 60 57 61 64 65 75 69 72 88 82 89 101 92 91 98 91 101 119 118 120 120 125 125 129 128 127 117 138 113 121 131 123 128 139 137 130 111 119 123 119 129 132 110 114 143 146 140 140 139 145 136 135 142 133 147 135 129 131 153 124 140 130 143 114 157 132 127 119 106 102 109 109 107 106 103 92 83 89 86 81 83 76 86 86 78 70 59 55 75 71 67 54 61 59 66 46 55 54 52 44 53 61 55 53 56 66 65 57 58 57 59 62 57 50 49 56 57 53 47 59 54 66 63 49 62 62 55 59 59 65 73 68 72 70 69 72 73 73 83 78 77 83 77 70 63 60 66 70 65 70 65 53 47 52 48 51 42 52 56 47 45 46 43 42 38 35 36 32 35 45 35 35 40 39 44 45 40 36 41 52 47 44 47 42 48 46 57 53 41 63 50 50 62 61 69 81 73 79 82 83 83 78 73 69 72 78 80 79 81 78 66 80 76 78 73 85 81 80 71 67 57 80 76 82 91 75 89 84 88 86 78 80 81 77 76 80 81 82 75 68 70 68 67 68 63 67 58 64 52 71 58 63 62 56 41 63 60 51 55 61 50 58 54 52 52 51 49 47 45 47 49 49 47 41 49 57 50 45 45 54 52 51 47 46 47 58 55 45 40 54 55 40 50 53 43 43 47 43 45 42 42 52 51 47 49 48 53 43 46 46 45 51 52 64 51 53 64 63 54 60 65 63 67 77 70 71 64 61 69 69 71 67 65 78 87 80 75 71 72 90 105 102 79 89 80 94 92 102 105 108 108 95 108 119 137 130 141 139 144 164 161 171 161 165 177 173 182 181 174 192 206 193 168 182 183 171 189 156 166 160 175 179 161 152 171 172 168 168 170 179 176 166 158 159 158 164 163 161 174 166 154 161 149 124 124 122 118 124 119 110 99 80 80 109 102 102 95 77 76 81 87 76 66 74 71 75 73 72 73 71 76 82 84 70 71 71 67 71 71 76 67 74 81 62 79 77 66 56 52 62 68 51 55 72 70 67 67 61 59 64 68 71 81 82 78 90 85 101 93 77 101 105 112 99 124 109 132 132 127 138 164 168 170 160 150 149 160 166 150 140 151 169 157 140 143 136 131 124 108 93 89 93 106 114 119 110 126 139 120 125 131 128 145 147 174 156 176 179 162 176 172 165 174 179 179 180 183 170 151 165 163 169 142 140 154 147 130 135 135 101 116 123 106 107 110 100 86 100 96 98 101 112 119 111 95 102 124 119 115 127 130 136 118 129 137 139 139 164 152 152 135 164 169 175 143 147 167 181 175 180 186 184 186 197 201 193 186 206 204 192 201 196 195 191 194 195 186 186 192 186 170 165 156 157 152 155 133 164 146 133 117 112 131 132 118 114 112 105 97 101 94 80 85 90 90 85 82 82 80 73 98 87 82 78 89 68 99 81 79 67 80 83 85 76 76 72 65 76 69 57 63 69 67 61 57 63 67 65 60 62 70 59 56 62 53 66 70 67 64 81 68 77 65 62 53 65 82 73 86 93 87 93 94 91 95 101 104 100 103 110 96 89 89 94 96 93 95 83 75 87 66 81 72 77 71 67 67 66 67 69 64 64 78 74 66 66 68 75 83 80 68 65 67 74 71 66 70 84 86 87 95 75 78 83 90 78 76 71 86 83 63 73 75 68 70 67 61 62 65 64 59 56 53 53 63 57 52 65 63 45 51 48 49 54 65 64 62 52 62 51 50 58 54 59 47 48 48 53 60 56 48 52 58 55 56 60 60 65 65 72 71 66 64 76 67 83 86 75 90 95 95 92 84 87 104 108 116 97 95 109 116 117 110 102 112 130 115 101 103 101 103 98 115 100 107 105 99 102 102 104 99 94 106 107 116 105 94 88 91 82 77 73 77 89 93 96 91 78 82 79 78 73 76 80 69 69 74 68 67 71 68 74 75 68 64 59 76 59 57 66 65 64 72 66 50 52 63 58 53 56 51 44 44 46 51 48 45 46 38 49 52 47 41 36 36 58 46 33 40 41 40 46 44 40 34 41 48 43 47 61 68 62 57 58 49 58 58 64 63 70 60 63 70 69 62 67 71 69 78 75 72 77 83 86 82 84 97 104 99 91 78 80 96 91 90 94 101 97 83 88 85 81 89 74 82 85 89 76 78 72 64 71 75 73 57 58 56 53 60 67 70 67 61 61 68 67 60 57 55 46 51 57 64 62 49 49 38 60 52 53 60 65 69 68 62 63 65 62 67 79 74 71 83 84 84 88 80 78 89 101 104 87 82 86 96 89 99 87 106 102 93 104 102 99 92 105 94 92 103 107 111 110 99 92 104 113 103 104 114 114 121 111 111 103 99 117 99 126 123 132 125 101 118 107 118 104 116 124 122 97 108 98 96 110 110 110 101 88 87 86 88 85 83 109 94 76 79 83 74 86 83 83 95 77 95 94 89 95 85 90 88 74 81 91 89 79 74 87 89 78 83 90 81 74 76 81 89 90 78 73 90 81 67 78 90 88 78 84 83 79 83 96 93 96 90 82 82 83 85 91 96 97 99 97 95 104 105 92 101 110 97 100 111 95 121 101 107 96 120 107 91 109 107 100 91 96 93 102 106 102 95 89 77 77 85 78 76 88 95 80 78 85 84 72 73 74 87 79 96 59 89 78 75 83 72 81 77 83 76 86 86 87 84 79 80 76 71 80 85 80 88 89 81 83 93 82 92 95 89 98 85 106 98 75 101 86 92 90 89 102 105 97 98 99 95 90 96 100 98 108 110 112 125 103 106 102 113 115 106 94 97 93 87 91 92 113 83 88 88 82 89 75 75 81 86 86 75 66 67 68 65 65 65 62 65 70 70 67 55 62 71 61 67 62 59 59 59 57 55 54 49 53 60 57 60 57 58 52 52 60 59 52 51 57 53 50 42 47 56 53 53 47 52 63 56 45 47 58 48 47 55 57 63 49 51 44 41 46 50 48 51 49 46 43 43 45 45 54 49 66 59 55 49 55 63 52 52 53 60 57 63 52 49 49 55 52 55 64 61 49 55 57 50 50 53 55 51 52 62 57 53 54 47 47 52 47 43 39 38 57 40 49 47 50 43 48 35 36 41 46 46 38 44 45 42 43 43 41 41 50 54 47 45 47 49 49 52 45 51 57 45 47 45 58 47 44 52 56 48 50 65 70 67 52 56 58 59 56 55 62 55 50 64 62 59 54 64 60 58 61 66 59 66 63 64 79 62 68 68 65 61 62 78 69 69 65 67 70 68 71 66 59 59 61 66 71 70 59 64 70 82 78 70 64 74 85 74 72 73 76 84 86 77 79 85 75 74 75 81 71 56 67 85 81 80 91 88 73 71 72 72 66 76 67 77 64 92 66 66 71 69 72 64 66 63 74 75 76 64 63 69 65 60 65 66 63 68 70 63 60 66 69 79 62 60 82 64 63 68 66 60 57 63 59 57 61 59 57 58 59 66 63 63 60 52 50 52 60 68 63 59 67 70 60 53 49 59 53 65 70 62 45 78 64 69 64 66 64 58 67 63 57 53 69 73 72 64 63 67 64 67 63 62 64 66 60 55 66 61 55 49 57 64 50 58 58 60 51 52 49 46 53 52 49 54 52 54 51 43 44 52 55 49 41 41 48 52 46 36 39 45 37 47 47 28 43 45 37 45 43 42 33 39 42 44 45 42 45 36 37 46 45 39 38 48 56 51 39 44 44 39 52 35 38 46 40 42 45 46 35 35 46 51 35 52 44 37 45 50 50 45 45 44 44 48 46 41 39 38 39 48 45 50 48 48 51 56 57 67 38 57 52 54 58 47 55 67 66 50 49 61 61 51 44 53 62 60 56 53 53 55 67 69 64 61 63 57 63 53 55 54 44 40 59 64 50 54 61 62 47 54 47 45 50 53 55 54 57 52 43 45 45 47 49 46 51 43 47 50 49 53 60 54 47 52 58 48 51 54 48 42 48 48 47 58 58 57 62 54 51 54 49 56 62 57 64 68 59 53 57 75 56 62 52 48 74 66 63 71 67 73 70 70 69 65 55 61 63 59 61 67 66 61 71 81 69 66 71 61 69 68 80 64 79 62 77 50 61 60 65 74 73 58 57 68 68 61 59 57 51 64 63 55 53 57 67 57 52 58 57 51 53 54 48 49 46 53 55 49 59 58 42 56 51 48 48 46 43 39 46 50 48 41 39 43 42 41 46 50 48 50 44 48 53 43 43 46 47 47 46 42 33 43 45 38 45 51 47 44 49 50 54 50 42 43 48 52 56 54 50 46 51 57 54 50 54 66 56 55 41 49 47 70 58 62 47 52 63 60 54 54 56 58 54 53 56 51 55 60 55 56 58 57 52 55 49 47 52 47 56 45 45 43 55 47 50 49 55 55 58 50 54 49 50 49 54 54 53 54 55 52 45 56 68 60 60 53 52 54 64 66 51 52 57 40 49 59 68 59 53 55 55 49 50 56 48 46 53 60 59 53 53 49 46 53 48 48 55 52 53 56 42 47 46 48 43 46 51 59 42 36 36 39 46 41 37 55 46 41 41 41 51 48 43 47 52 47 46 55 46 51 50 46 49 53 56 55 42 48 49 52 46 45 49 48 57 48 46 39 45 50 47 42 36 37 47 51 48 47 40 39 46 44 37 41 45 54 42 40 48 47 36 39 39 38 49 43 48 47 44 51 51 39 36 33 35 39 41 40 37 40 45 43 42 44 44 39 42 47 40 38 46 37 44 34 40 24 33 43 44 36 38 38 35 41 48 48 43 36 37 39 43 49 47 45 39 42 51 42 52 31 41 43 56 40 40 43 39 53 50 54 44 54 50 50 45 42 53 47 40 43 43 49 55 52 46 42 49 45 53 52 58 60 44 56 44 51 54 42 45 48 50 52 59 47 55 55 43 43 55 53 56 58 47 48 57 58 61 63 54 58 66 66 53 52 63 66 60 67 59 71 68 76 62 68 68 63 66 59 49 56 67 58 61 67 60 54 47 47 54 51 55 58 51 58 52 44 51 42 40 49 50 55 57 48 47 47 55 44 43 42 45 38 38 42 42 39 41 46 45 45 52 50 41 38 42 42 40 39 32 41 35 36 46 42 35 51 30 44 44 36 46 46 44 45 46 42 41 40 35 32 35 44 49 49 47 49 57 46 45 43 44 45 52 42 38 52 49 34 40 48 54 52 47 49 55 50 48 61 56 46 52 57 53 53 50 45 59 63 60 51 52 67 60 60 58 62 52 62 60 60 49 54 65 62 67 52 57 61 60 49 49 61 59 50 47 51 61 57 48 58 56 57 68 62 57 55 46 49 38 45 42 50 48 38 43 43 46 49 46 45 50 49 50 48 48 48 41 39 41 49 43 49 47 51 49 34 47 49 44 40 35 41 47 54 42 40 44 56 42 33 42 54 56 50 47 49 50 46 41 41 46 52 44 51 47 48 51 64 53 60 55 60 60 60 59 56 44 65 58 53 67 56 52 50 53 55 52 54 59 61 66 63 50 46 49 58 52 54 60 48 57 56 39 59 66 41 59 61 57 55 51 64 50 40 43 53 55 49 45 45 45 48 54 51 50 46 39 48 43 41 48 43 32 45 40 47 53 43 50 42 46 46 48 45 41 38 45 41 45 38 37 48 42 33 43 44 42 51 49 43 46 49 47 49 50 39 34 48 60 50 45 49 52 49 61 44 53 41 40 45 45 47 47 36 34 41 34 30 39 42 33 41 38 42 48 33 43 42 38 32 40 32 34 39 31 38 38 41 34 38 39 36 31 35 39 36 38 35 30 36 34 28 32 29 33 33 32 36 28 34 35 36 28 41 48 39 29 34 39 30 37 36 33 34 33 31 37 35 30 32 32 37 37 35 37 43 38 39 39 46 41 36 44 36 43 39 44 50 29 43 51 44 39 48 49 51 49 44 45 46 39 41 48 48 50 44 51 52 43 47 41 45 49 40 60 53 36 51 48 51 44 52 53 55 42 49 46 50 52 46 47 47 47 52 48 45 47 39 42 43 49 56 59 42 34 49 50 39 45 40 39 50 40 48 48 40 38 43 38 38 43 41 40 39 40 40 37 44 41 32 39 42 32 36 43 32 40 49 34 39 37 31 35 40 39 31 33 36 40 49 45 44 43 41 41 41 45 43 40 45 43 40 39 36 44 52 43 48 59 50 35 43 38 36 53 47 50 58 62 53 51 52 60 62 53 51 54 60 56 46 57 62 49 51 49 56 52 60 54 63 56 55 62 57 56 49 55 65 54 58 58 61 61 60 56 55 57 58 61 53 49 59 58 52 58 61 48 37 40 51 55 47 58 66 44 49 55 49 52 50 60 59 51 42 55 56 48 53 58 54 47 47 54 49 40 45 51 49 40 44 38 37 47 59 49 39 41 46 39 44 43 46 45 49 46 41 41 48 44 38 43 47 49 50 48 45 38 34</intensities>
			</dataPoints>
			<nonAmbientPoints type="Temperature" unit="K">
				<measurementTimes unit="seconds" deltaTime="1">0</measurementTimes>
				<nonAmbientValues>453.000</nonAmbientValues>
			</nonAmbientPoints>
		</scan>
	</xrdMeasurement>
</xrdMeasurements>
