<?xml version="1.0" encoding="UTF-8"?>
<xrdMeasurements xmlns="http://www.xrdml.com/XRDMeasurement/1.5" xmlns:xsi="http://www.w3.org/2001/XMLSchema-instance" xsi:schemaLocation="http://www.xrdml.com/XRDMeasurement/1.5 http://www.xrdml.com/XRDMeasurement/1.5/XRDMeasurement.xsd" status="Completed">
	<comment>
		<entry>France</entry>
	</comment>
	<sample type="To be analyzed">
		<id>NB LM01MO</id>
	</sample>
	<xrdMeasurement measurementType="Scan" status="Completed" sampleMode="Reflection">
		<usedWavelength intended="K-Alpha 1">
			<kAlpha1 unit="Angstrom">1.540598</kAlpha1>
			<kAlpha2 unit="Angstrom">1.544426</kAlpha2>
			<kBeta unit="Angstrom">1.392250</kBeta>
			<ratioKAlpha2KAlpha1>0.500000</ratioKAlpha2KAlpha1>
		</usedWavelength>
		<incidentBeamPath>
			<radius unit="mm">217.500</radius>
			<xRayTube>
				<tension unit="kV">40</tension>
				<current unit="mA">40</current>
				<anodeMaterial>Cu</anodeMaterial>
			</xRayTube>
			<divergenceSlit xsi:type="fixedDivergenceSlitType">
				<angle unit="deg">0.600</angle>
			</divergenceSlit>
		</incidentBeamPath>
		<diffractedBeamPath>
			<radius unit="mm">217.500</radius>
			<receivingSlit>
				<height unit="mm">0.100</height>
			</receivingSlit>
		</diffractedBeamPath>
		<scan appendNumber="0" mode="Pre-set time" scanAxis="Gonio" status="Completed">
			<header>
				<startTimeStamp>2018-09-24T11:43:26</startTimeStamp>
				<author>
					<name>nashost</name>
				</author>
				<source>
					<applicationSoftware version="3.0.2">HighScore Plus</applicationSoftware>
				</source>
			</header>
			<dataPoints>
				<positions axis="2Theta" unit="deg">
					<startPosition>10.000</startPosition>
					<endPosition>79.986</endPosition>
				</positions>
				<commonCountingTime unit="seconds">197.998</commonCountingTime>
				<intensities unit="counts">292 275 279 274 276 232 261 267 274 278 292 286 259 261 269 282 298 284 265 278 279 259 274 267 263 278 260 254 282 244 268 272 248 266 267 261 228 271 255 256 266 254 244 269 279 272 260 245 243 259 265 259 256 248 266 265 251 243 266 255 260 259 255 246 242 229 230 244 265 238 237 252 236 235 240 239 245 250 258 243 238 252 240 226 232 240 237 223 215 225 224 233 208 241 229 221 232 249 225 231 235 214 216 232 240 229 231 250 246 228 220 231 228 223 226 212 214 230 228 229 235 251 230 215 221 238 207 247 223 197 230 219 240 224 228 237 248 238 287 348 384 462 531 541 496 388 287 257 235 221 228 199 198 214 204 208 216 221 197 185 208 188 177 193 216 197 222 203 190 196 202 208 198 181 184 199 211 217 206 186 188 203 204 205 218 204 206 203 197 191 203 232 188 170 194 214 219 178 172 185 207 202 216 209 182 185 196 189 178 186 187 176 194 191 173 200 181 168 194 195 190 191 192 203 185 206 200 203 186 191 187 188 193 183 175 189 194 182 187 190 194 187 171 187 187 180 182 181 205 210 199 165 172 189 186 183 180 198 192 193 184 193 202 183 184 207 196 173 181 187 191 188 176 187 190 176 179 168 173 208 215 200 190 190 206 164 202 181 189 213 215 218 202 185 173 187 193 178 182 179 190 204 227 238 264 336 439 610 913 1428 2139 2990 3744 4059 3417 2177 1103 581 323 264 235 220 229 208 224 174 196 185 173 182 186 184 177 179 181 188 179 160 162 175 189 177 163 167 165 173 176 164 182 188 179 186 176 160 155 158 157 165 144 148 138 149 155 152 152 162 163 164 160 149 153 161 160 148 161 169 154 145 133 147 145 149 140 152 137 155 146 148 161 138 145 153 144 134 149 154 151 143 154 143 130 146 144 152 161 153 156 136 141 130 133 141 133 155 145 155 120 143 148 138 149 149 135 139 148 147 142 155 133 134 152 142 135 134 129 135 145 151 142 130 139 140 139 143 143 153 144 134 132 127 135 141 124 130 132 142 136 128 117 127 135 132 126 123 126 134 130 121 134 126 146 129 130 137 144 120 137 120 132 128 142 127 133 131 109 139 131 108 132 138 121 108 111 128 126 115 128 137 133 150 157 174 219 263 349 443 564 650 518 362 226 182 148 117 143 117 123 129 127 138 129 125 128 133 119 108 110 109 115 115 108 117 106 101 114 119 109 104 111 114 122 117 94 126 117 96 103 103 116 104 126 116 112 121 121 110 110 119 118 105 106 110 107 115 118 122 122 119 113 118 114 106 114 141 164 185 229 289 410 541 626 606 483 352 227 152 134 139 116 102 108 110 119 121 105 94 93 101 105 111 95 115 111 99 96 102 106 119 103 100 113 107 104 105 93 101 91 101 102 95 97 96 91 98 105 103 96 91 92 92 109 98 96 86 103 101 84 87 88 98 104 96 80 91 100 84 93 88 93 93 81 89 96 91 92 95 95 95 95 89 87 84 94 91 88 83 90 99 80 83 92 75 97 85 79 84 87 92 88 81 89 92 84 86 92 84 86 93 91 90 82 83 85 82 95 85 91 101 106 96 83 104 79 86 94 90 82 82 82 79 86 77 80 93 90 76 80 78 74 81 80 81 94 87 78 84 90 87 75 82 87 72 84 87 105 75 85 76 78 84 84 73 76 90 93 85 71 73 82 82 80 86 84 86 95 79 74 90 79 70 84 85 86 74 68 68 87 81 87 73 74 82 86 90 92 117 130 170 214 279 317 300 249 185 128 92 79 70 72 82 79 84 70 78 91 83 86 61 88 68 69 74 91 84 82 72 73 78 76 72 66 75 73 69 77 83 82 73 68 75 75 67 67 62 73 73 73 86 76 69 70 77 76 68 72 66 63 69 61 68 65 61 64 72 86 76 66 72 75 79 78 80 79 78 79 69 62 59 67 85 75 99 112 130 94 74 86 82 87 92 83 80 88 104 136 171 245 376 500 544 495 377 247 167 109 88 69 73 77 70 75 75 75 65 57 68 93 78 66 70 81 63 78 76 65 58 64 77 73 61 63 64 58 65 75 84 105 127 187 269 312 337 270 167 112 88 81 79 81 64 77 84 65 72 67 70 77 59 58 62 64 72 69 63 61 57 62 66 71 80 80 65 55 59 68 68 70 61 54 67 72 53 57 55 50 60 60 62 60 62 68 70 66 58 62 71 72 69 66 71 63 60 60 57 63 64 67 71 77 65 61 60 50 81 76 81 85 95 97 130 155 245 400 696 1178 1864 2600 2970 2606 1705 880 393 213 153 109 93 94 97 81 75 72 59 69 69 72 67 67 65 60 70 60 58 57 56 55 68 68 60 63 61 64 71 61 67 66 56 56 65 64 52 70 63 59 80 84 85 84 80 102 119 160 244 363 561 884 1288 1503 1347 960 596 349 219 162 121 112 110 107 123 188 299 536 913 1569 2456 3166 3314 2326 1292 644 321 192 134 121 110 75 67 63 63 69 71 76 73 59 58 65 62 58 61 56 54 68 63 65 65 61 59 56 73 60 64 64 90 111 108 103 75 65 64 56 55 57 55 51 53 62 58 57 65 46 46 57 52 52 53 48 62 59 50 61 46 56 49 54 52 65 63 65 60 71 94 118 154 185 182 137 91 85 92 104 147 228 360 501 627 629 515 338 205 113 73 53 66 63 56 59 48 46 57 50 49 44 51 53 49 55 52 45 48 47 52 55 49 59 51 46 43 46 52 49 54 50 46 54 47 45 38 46 42 54 46 47 44 47 44 48 48 44 45 54 58 53 47 50 59 47 43 50 52 49 62 58 60 41 49 43 46 55 40 39 43 50 49 54 47 53 50 45 44 45 45 40 39 38 43 54 46 48 47 45 48 52 53 44 45 56 40 64 55 42 47 45 39 46 49 42 46 49 45 43 48 54 50 51 49 45 48 50 53 51 52 60 58 55 59 47 55 48 70 59 75 86 133 180 242 399 714 1086 1558 1976 1947 1549 1065 736 609 610 672 727 831 1098 1506 1858 1791 1358 818 407 214 150 96 90 88 61 53 53 55 57 53 54 55 50 47 47 50 56 61 57 60 60 61 62 61 72 79 83 97 124 210 347 543 897 1384 1989 2132 1911 1252 619 367 210 151 104 93 85 73 68 66 78 90 90 82 79 79 70 60 54 50 55 66 60 62 70 109 141 206 314 486 790 1032 1061 914 629 395 214 150 115 83 71 63 52 46 47 42 41 41 44 50 52 58 43 44 49 51 50 41 38 40 39 50 40 50 38 41 36 38 41 41 41 47 44 39 45 40 44 46 38 38 42 38 34 42 43 45 44 40 36 43 45 44 38 35 37 36 37 40 39 39 41 44 47 50 53 45 37 40 45 43 44 45 40 41 48 52 55 61 67 68 94 109 141 186 299 430 705 1234 1879 2584 2819 2401 1630 950 544 299 190 139 112 91 84 73 60 51 51 56 49 51 49 50 54 54 46 51 65 66 63 87 61 100 121 179 273 450 731 1137 1532 1676 1410 952 554 316 203 145 103 78 65 59 64 57 42 44 48 43 52 42 39 37 24 44 39 33 41 34 33 36 36 31 40 39 44 48 39 35 44 46 43 40 37 37 34 37 40 33 39 40 31 30 38 34 29 44 36 44 34 33 33 33 29 32 40 38 34 33 33 35 39 43 44 35 30 41 41 37 46 45 35 32 34 41 44 48 46 37 50 53 54 58 55 65 95 103 92 108 105 118 162 236 383 586 940 1438 1923 2132 1807 1253 783 405 230 146 103 92 75 74 62 47 56 41 40 44 43 40 36 31 43 36 36 37 38 42 38 37 39 32 30 33 31 32 36 40 35 39 26 29 31 35 29 34 33 28 28 31 31 34 25 31 41 46 49 44 49 59 68 88 130 186 236 254 222 168 120 84 68 41 52 34 32 37 30 37 31 25 41 35 36 37 34 38 40 31 33 26 30 30 25 29 30 27 31 38 37 33 30 30 28 25 34 40 35 43 40 29 30 36 40 40 41 35 32 32 31 28 41 35 32 45 46 46 50 48 53 70 103 163 234 329 457 460 366 284 182 99 100 87 81 120 147 195 260 285 278 202 133 98 74 51 41 43 44 39 30 26 29 32 32 31 38 40 36 27 35 29 42 38 55 59 66 84 94 103 92 76 44 46 39 34 34 31 27 28 31 31 29 29 31 33 33 27 26 26 39 27 32 32 41 33 36 41 43 45 50 35 31 33 24 27 28 25 29 29 31 31 25 23 27 30 29 29 30 26 23 31 30 33 26 38 37 33 47 40 63 71 102 175 256 422 574 731 672 495 308 184 125 96 80 72 75 93 116 155 223 321 413 449 366 268 171 113 84 70 53 39 49 37 34 36 34 31 36 32 33 35 28 23 21 24 23 19 20 21 26 30 32 33 22 20 24 34 33 21 23 26 21 34 29 22 16 14 28 18 17 21 26 22 22 28 28 27 25 24 27 29 30 33 31 37 52 50 82 120 156 256 359 385 364 255 174 135 92 64 50 51 38 38 27 32 36 34 30 27 34 42 47 60 74 90 132 176 180 164 124 73 55 38 32 24 28 30 24 25 29 24 30 24 25 27 20 22 18 19 30 34 29 25 21 22 28 28 22 22 25 27 28 26 33 28 29 28 22 21 25 19 23 23 25 26 30 30 24 21 25 26 27 24 21 22 25 24 23 23 21 21 23 25 22 25 30 21 25 27 25 22 27 23 29 16 31 26 34 39 52 69 79 89 102 94 64 44 39 36 33 30 27 27 36 24 28 30 21 24 20 21 19 27 25 26 22 20 30 34 25 26 21 17 20 20 21 24 24 18 14 16 17 18 22 24 17 24 22 22 37 18 23 31 28 29 24 34 28 24 29 39 40 37 38 57 60 52 38 38 33 25 26 23 25 25 21 25 26 15 18 26 36 33 19 21 36 21 43 38 56 79 97 135 188 262 279 277 244 165 104 68 47 36 27 26 31 31 25 23 23 18 17 22 24 28 22 25 18 25 19 32 25 22 17 21 23 20 20 27 25 23 26 24 20 19 20 20 18 20 20 23 23 21 19 23 20 24 21 23 24 25 26 19 25 24 29 42 46 52 67 104 129 127 117 88 55 47 42 30 24 23 25 24 28 20 13 32 19 22 17 14 22 22 22 17 17 25 28 34 43 50 65 87 119 146 165 159 137 120 117 150 222 327 442 528 548 442 349 217 133 95 63 51 48 44 38 27 34 33 26 21 18 22 19 22 24 21 26 27 22 22 24 21 17 20 22 25 32 40 42 51 51 37 40 33 27 25 20 26 23 22 23 23 22 24 30 31 28 32 35 42 57 75 106 146 190 254 318 316 273 224 137 101 103 95 83 80 65 55 41 30 32 32 34 30 34 37 37 55 60 65 92 125 148 157 137 100 91 94 90 108 87 61 59 40 28 26 26 25 25 30 25 22 19 24 28 29 26 21 20 25 32 38 51 52 55 64 51 40 36 22 13 18 17 26 26 19 22 29 15 25 27 32 18 31 32 37 32 27 22 26 22 20 17 22 23 18 18 18 16 21 27 22 17 22 25 27 22 28 24 27 22 17 10 24 20 18 16 29 19 21 21 25 20 20 29 35 31 28 32 39 51 63 78 111 120 142 128 100 87 68 54 40 32 32 30 30 26 32 36 51 52 59 49 55 48 38 33 31 35 37 38 46 59 77 91 106 106 74 66 44 40 35 44 30 24 35 36 66 53 53 86 108 184 261 329 359 346 339 367 435 540 619 588 472 342 231 151 97 67 58 45 36 36 38 33 26 30 32 19 25 20 23 23 19 20 20 22 22 22 23 19 20 26 30 26 21 23 23 19 24 23 22 24 22 23 19 21 26 23 17 30 34 33 24 37 35 44 44 49 64 92 136 216 304 360 421 448 371 274 198 113 80 67 67 76 82 67 43 54 40 54 38 33 34 60 66 84 105 112 86 71 63 64 71 82 103 144 201 269 330 382 442 479 476 432 389 384 449 566 655 740 625 458 274 209 121 98 63 55 44 37 37 36 28 32 36 35 28 25 29 33 32 32 42 51 63 85 123 150 191 240 196 153 117 89 70 63 47 59 80 90 116 148 171 193 181 146 107 78 62 45 30 29 32 29 29 30 23 26 19 30 20 20 22 22 23 21 22 28 17 22 19 24 22 19 19 21 21 19 24 24 19 23 25 22 25 28 26 22 22 20 23 24 28 35 41 38 60 87 112 169 231 357 473 504 501 404 299 226 167 126 127 139 186 267 337 401 424 356 254 179 127 90 71 49 50 55 34 37 37 26 28 26 26 21 17 26 20 26 28 22 20 21 22 25 21 15 16 22 29 28 25 24 26 21 25 33 27 29 46 57 78 93 73 63 53 33 39 21 26 23 25 23 24 31 29 24 28 26 23 27 31 32 28 33 32 40 41 61 68 81 108 129 164 234 368 476 559 645 603 510 385 257 171 132 104 88 72 53 42 37 34 30 25 29 32 30 27 22 22 21 26 23 34 30 20 18 20 17 29 19 24 27 26 20 28 30 29 34 35 31 32 36 34 30 34 47 56 70 103 141 185 294 397 502 565 483 396 271 174 113 95 69 76 79 100 113 139 145 140 115 96 78 53 36 33 35 30 24 21 24 23 22 23 27 34 34 43 53 42 49 57 53 44 36 33 27 34 27 20 20 17 17 17 19 22 20 18 19 20 18 18 25 23 20 22 20 17 18 13 18 17 20 26 30 30 39 48 56 67 73 67 62 54 33 21 21 22 22 18 13 14 21 20 21 19 14 21 17 24 23 23 34 22 24 39 42 51 65 76 93 126 176 235 266 249 212 171 135 102 90 90 82 85 81 59 51 42 36 22 19 33 34 33 21 23 24 33 33 33 56 72 89 131 152 149 143 107 72 57 38 25 22 26 31 29 33 30 25 24 34 38 28 43 54 60 78 76 84 82 71 59 40 42 41 25 26 30 31 30 33 38 42 36 35 50 61 75 103 131 169 211 244 289 346 407 416 376 329 252 217 197 213 220 215 213 167 141 118 129 163 224 271 264 218 178 151 108 62 49 47 33 31 32 28 23 33 23 31 24 22 24 21 29 27 17 14 16 23 25 32 34 32 41 51 68 94 130 169 199 192 137 83 59 46 37 25 19 19 19 28 18 29 24 24 23 28 25 34 38 43 50 72 75 87 112 138 148 175 194 160 120 102 86 75 64 69 87 111 128 170 214 251 269 193 123 92 52 39 43 39 33 24 24 17 21 27 27 23 27 23 22 28 28 26 26 29 35 36 37 47 51 53 79 98 139 203 281 419 508 480 388 250 164 108 68 58 50 46 49 49 47 43 42 37 26 17 18 23 21 25 30 32 23 23 18 27 25 16 27 22 27 33 46 54 60 100 105 122 107 74 56 46 36 32 25 24 30 25 21 22 21 13 18 19 18 21 22 17 17 25 26 33 26 38 35 42 37 42 61 72 66 61 58 59 60 70 89 105 118 142 183 238 283 330 358 355 394 369 352 327 298 236 173 118 80 67 53 34 32 37 34 29 29 21 23 25 23 26 33 39 40 47 59 59 73 111 124 106 101 98 71 59 50 58 55 49 61 50 29 25 29 28 29 23 26 26 30 25 25 28 25 20 18 24 30 30 29 20 23 22 22 15 16 27 19 20 28 25 19 24 34 24 36 40 37 51 72 93 115 130 136 139 129 104 82 72 74 86 100 130 174 207 255 317 291 230 167 119 94 65 54 68 65 61 78 107 140 179 211 215 193 139 96 73 54 42 32 26 26 28 27 27 25 25 17 27 16 18 20 30 12 16 21 19 21 22 12 15 19 24 21 21 21 22 22 21 21 20 19 21 24 26 23 25 34 44 51 66 70 74 57 46 37 38 26 22 34 23 26 23 24 29 30 30 44 46 39 43 47 46 44 37 28 22 30 28 30 25 19 22 27 20 19 33 49 43 70 74 124 123 125 120 84 61 44 36 28 30 31 25 28 29 23 28 34 25 21 20 28 18 7 17 8 17 22 11 14 17 16 12 12 14 15 15 14 24 24 20 24 26 23 27 31 29 34 36 35 51 57 55 63 69 70 64 53 45 41 31 27 31 21 26 21 19 21 21 26 29 28 41 37 36 49 64 87 116 136 158 160 120 86 68 72 71 70 96 111 126 173 183 184 150 144 117 78 72 41 33 33 30 27 24 25 26 24 25 25 26 25 22 25 20 22 27 32 46 59 60 84 100 137 132 131 96 89 75 81 82 88 122 163 200 232 244 255 223 180 157 134 117 95 65 55 48 33 33 28 26 25 29 22 18 21 23 29 20 25 23 24 25 31 25 40 52 50 68 79 91 105 95 88 85 68 58 48 38 27 34 39 26 21 20 23 17 22 21 20 25 20 31 26 37 42 35 48 48 51 65 71 85 104 127 168 214 251 278 303 330 305 269 227 241 235 242 264 243 274 244 194 164 119 77 75 63 48 40 34 41 37 41 41 37 47 54 51 51 50 40 34 40 37 32 29 26 22 21 24 21 27 33 25 43 58 76 85 117 171 197 236 213 173 130 94 70 53 43 38 36 31 24 25 25 21 22 24 11 12 24 14 12 23 17 18 15 12 12 12 21 15 15 22 15 17 19 15 17 21 17 12 14 16 12 8 13 16 18 20 18 12 13 11 17 14 24 24 17 14 15 18 15 22 19 18 21 24 21 24 29 32 34 30 35 46 45 52 50 73 85 106 124 146 160 162 132 122 95 53 52 32 38 35 24 27 34 39 41 47 62 65 71 79 87 96 92 83 78 68 50 42 43 30 27 23 25 19 24 33 29 27 24 32 36 26 25 29 28 33 36 30 32 29 28 26 22 21 23 26 24 18 18 21 26 21 19 23 33 37 40 49 51 52 56 51 33 40 33 32 22 22 24 23 22 23 20 21 24 25 28 37 51 55 64 67 78 69 53 49 37 33 41 36 30 36 45 47 48 50 43 34 32 23 19 19 20 28 30 39 47 51 52 34 25 21 23 30 22 18 14 23 19 15 26 28 24 32 43 49 58 63 62 58 47 42 44 37 25 23 23 22 21 17 17 20 21 23 20 31 27 21 25 39 35 51 50 59 100 97 77 64 67 57 38 32 27 28 29 24 21 25 24 21 18 14 16 16 16 20 14 15 22 17 19 16 14 20 16 16 20 19 28 21 29 34 40 33 38 48 57 86 98 113 144 164 174 180 175 147 109 92 77 60 48 41 38 29 33 33 17 19 29 23 29 26 42 25 34 37 44 57 73 81 106 111 108 110 102 100 93 73 70 62 51 41 30 33 27 30 32 28 25 27 16 16 18 27 22 22 27 21 23 27 22 18 15 24 28 21 16 20 28 26 25 24 27 36 34 46 75 76 84 93 80 82 64 57 57 32 26 21 25 34 37 42 43 39 50 58 70 88 94 100 94 68 59 45 36 39 19 25 23 25 27 20 18 14 18 24 21 17 14 14 17 14 13 14 15 14 18 22 23 25 21 17 21 18 17 20 25 23 24 29 27 35 42 40 43 32 47 49 40 58 60 66 68 55 40 34 33 23 26 33 29 26 27 35 45 48 49 61 82 69 81 84 85 74 66 56 46 48 48 40 57 65 78 85 88 76 55 42 29 22 24 23 15 14 18 21 23 20 17 14 14 12 15 17 16 19 15 22 17 13 9 14 22 16 18 18 20 21 20 23 30 29 25 20 17 18 20 22 22 25 27 29 30 26 35 34 46 49 63 60 84 99 125 138 150 168 130 137 124 115 124 105 88 84 84 71 55 55 49 32 28 29 25 21 22 22 23 22 18 14 17 13 14 14 11 13 14 20 17 16 21 19 19 15 14 18 18 15 12 14 18 15 14 15 16 24 20 15 16 26 21 19 28 25 34 44 53 64 51 54 60 54 60 73 65 67 64 52 41 46 42 28 29 29 22 24 37 28 36 46 33 36 39 36 40 18 24 21 25 20 19 17 18 17 19 19 25 22 22 26 32 34 45 58 69 68 53 60 59 45 41 34 28 34 26 25 24 24 34 35 56 57 61 67 82 79 97 91 91 78 56 51 55 57 53 50 50 43 42 47 40 29 28 25 21 18 21 21 27 22 31 18 26 35 40 43 49 47 48 46 46 41 36 29 31 39 36 33 45 54 58 80 100 112 134 141 133 121 121 100 108 110 86 70 63 60 51 51 52 61 57 75 85 100 107 115 120 107 98 100 92 76 62 53 49 48 40 45 30 30 24 27 21 29 19 17 13 13 22 17 16 15 17 20 18 16 11 18 26 22 21 26 27 28 27 26 34 34 26 20 27 24 28 27 38 40 47 48 44 51 36 32 24 30 25 25 23 21 21 26 21 18 24 27 27 24 20 19 21 20 20 23 24 21 27 26 29 21 26 33 35 55 61 62 65 64 67 100 122 149 168 146 120 107 88 63 58 62 44 33 32 29 28 23 26 32 30 37 40 50 59 55 80 66 71 81 89 105 95 87 70 63 52 36 33 34 26 20 20 21 24 24 26 31 36 43 33 33 50 51 44 51 61 45 49 41 37 29 26 23 18 18 25 27 33 38 37 36 41 45 44 42 39 40 36 45 48 52 50 62 61 59 66 63 47 36 40 48 39 42 46 51 74 78 91 102 124 141 158 160 146 135 126 107 79 72 58 41 44 50 36 31 29 34 21 24 27 32 32 27 29 25 19 22 28 21 21 22 16 19 24 23 21 21 30 42 41 53 77 94 119 137 145 127 126 123 86 66 53 45 35 27 24 30 36 29 20 28 30 36 37 35 37 41 44 44 49 56 50 46 49 41 37 32 33 28 31 25 35 26 39 39 42 32 39 32 35 38 45 49 54 69 91 101 106 109 121 136 133 130 126 123 109 96 76 63 55 50 50 45 51 45 33 29 24 22 21 19 19 22 18 15 17 21 21 16 12 14 16 16 15 16 18 16 13 21 23 15 21 13 18 18 23 27 22 16 32 29 30 31 36 37 41 45 54 55 55 56 47 40 41 36 29 24 22 22 18 20 19 17 21 13 23 14 13 24 14 10 17 12 17 12 13 15 12 10 10 15 14 14 14 16 19 17 14 12 16 18 15 14 23 22 29 20 18 18 11 12 17 11 16 18 15 16 13 16 20 24 27 24 20 22 31 42 49 53 69 76 68 73 73 63 53 55 51 35 34 29 19 17 12 21 20 19 17 15 12 16 14 24 22 18 17 16 16 17 21 22 15 12 17 21 24 30 30 37 35 36 29 25 25 19 27 17 18 23 21 23 23 22 17 21 33 31 30 34 47 55 58 71 82 95</intensities>
			</dataPoints>
			<nonAmbientPoints type="Temperature" unit="K">
				<measurementTimes unit="seconds" deltaTime="1">0</measurementTimes>
				<nonAmbientValues>303.000</nonAmbientValues>
			</nonAmbientPoints>
		</scan>
	</xrdMeasurement>
</xrdMeasurements>
